ENVI ASCII Plot File [Fri Sep 14 10:56:09 2007]
Column 1: Wavelength
Column 2: SPEX_Cloth_Green.csv:C2~~1
   453.799988   3.614945
   467.399994   5.367835
   481.899994   7.965414
   496.899994  10.326907
   511.700012  11.116658
   526.500000  10.471410
   541.599976   8.828822
   556.500000   7.180580
   571.200012   5.904004
   585.900024   4.808115
   600.700012   3.958334
   615.500000   3.423600
   630.000000   3.168847
   644.299988   3.136469
   658.900024   3.244371
   673.599976   3.391376
   688.000000   3.556238
   702.400024   3.835623
   716.900024   4.411787
   731.299988   5.490277
   745.400024   7.344162
   759.599976  10.317076
   773.900024  14.595514
   788.099976  19.909950
   802.200012  26.211834
   816.299988  32.050938
   830.700012  37.394665
   844.900024  41.930359
   858.900024  45.418907
   872.500000  47.859837
   874.799988  48.159924
   891.900024  49.893890
   907.299988  50.639732
   922.799988  51.141354
   938.599976  51.556545
   954.099976  51.792038
   969.200012  51.911369
   984.400024  51.980843
   999.900024  51.999336
  1014.900024  52.027771
  1029.900024  52.053268
  1045.099976  52.094040
  1060.099976  52.130638
  1074.599976  52.166752
  1089.199951  52.209480
  1104.099976  52.258865
  1118.599976  52.304333
  1133.000000  52.293373
  1147.400024  52.193508
  1161.800049  52.022606
  1176.000000  51.807621
  1190.199951  51.537907
  1204.300049  51.353367
  1218.300049  51.286167
  1232.099976  51.344158
  1246.099976  51.463207
  1260.199951  51.547073
  1274.099976  51.619423
  1287.599976  51.725758
  1301.199951  51.811131
  1315.199951  51.787182
  1328.900024  51.663712
  1389.300049  49.835262
  1404.199951  48.628986
  1419.300049  46.572147
  1433.500000  44.779842
  1448.000000  43.568874
  1462.400024  42.515892
  1477.000000  41.578903
  1490.900024  41.341003
  1504.800049  41.745640
  1518.599976  42.311684
  1532.500000  42.481606
  1546.099976  42.565556
  1559.800049  42.774967
  1573.199951  42.976238
  1586.400024  43.287628
  1599.500000  43.976280
  1612.800049  44.917183
  1626.000000  45.769508
  1638.800049  46.435707
  1651.699951  46.980831
  1664.500000  47.361023
  1677.199951  47.526321
  1689.699951  47.407764
  1702.300049  47.121124
  1714.900024  46.943623
  1727.300049  46.767792
  1739.500000  46.594212
  1751.800049  46.374290
  1764.000000  46.162491
  1776.000000  46.054485
  1788.000000  46.121227
  1799.900024  46.240376
  1952.400024  37.767429
  1971.699951  39.625805
  1991.000000  41.408421
  2010.099976  42.322269
  2029.000000  41.693024
  2048.000000  39.517475
  2067.199951  37.150444
  2086.199951  35.548592
  2104.800049  35.265350
  2123.000000  36.319851
  2141.000000  37.745831
  2159.100098  38.856449
  2177.000000  39.601852
  2194.600098  40.160507
  2213.399902  40.745636
  2231.000000  40.902199
  2248.199951  39.531822
  2265.699951  36.861206
  2283.100098  35.885147
  2300.600098  35.193047
  2317.600098  33.761826
  2334.500000  32.736534
  2351.100098  32.636459
  2367.600098  33.116699
  2384.399902  33.699707
  2401.100098  33.895428
  2417.699951  33.250088
  2433.699951  31.639812
  2449.600098  29.259003
  2465.300049  26.690090
  2480.899902  25.061163
  2496.300049  24.885645
